column 1 = time (s)
column 2 = E component
column 3 = N component
Note: data are normalized to have maximum value of 7.5
  0.00  -0.23068  -0.58459
  0.05  -0.22249  -0.59209
  0.10  -0.21245  -0.60094
  0.15  -0.20065  -0.61117
  0.20  -0.18724  -0.62282
  0.25  -0.17234  -0.63590
  0.30  -0.15611  -0.65043
  0.35  -0.13872  -0.66640
  0.40  -0.12034  -0.68382
  0.45  -0.10117  -0.70266
  0.50  -0.08138  -0.72289
  0.55  -0.06117  -0.74448
  0.60  -0.04074  -0.76739
  0.65  -0.02027  -0.79155
  0.70   0.00004  -0.81690
  0.75   0.02000  -0.84337
  0.80   0.03946  -0.87087
  0.85   0.05823  -0.89930
  0.90   0.07618  -0.92856
  0.95   0.09316  -0.95855
  1.00   0.10906  -0.98914
  1.05   0.12376  -1.02019
  1.10   0.13720  -1.05158
  1.15   0.14931  -1.08315
  1.20   0.16005  -1.11475
  1.25   0.16941  -1.14621
  1.30   0.17738  -1.17736
  1.35   0.18400  -1.20802
  1.40   0.18933  -1.23799
  1.45   0.19344  -1.26707
  1.50   0.19643  -1.29505
  1.55   0.19842  -1.32169
  1.60   0.19954  -1.34677
  1.65   0.19997  -1.37004
  1.70   0.19987  -1.39125
  1.75   0.19944  -1.41011
  1.80   0.19889  -1.42636
  1.85   0.19842  -1.43970
  1.90   0.19826  -1.44983
  1.95   0.19864  -1.45644
  2.00   0.19979  -1.45920
  2.05   0.20193  -1.45779
  2.10   0.20529  -1.45186
  2.15   0.21010  -1.44107
  2.20   0.21655  -1.42506
  2.25   0.22483  -1.40349
  2.30   0.23513  -1.37600
  2.35   0.24760  -1.34223
  2.40   0.26238  -1.30184
  2.45   0.27956  -1.25448
  2.50   0.29923  -1.19983
  2.55   0.32143  -1.13755
  2.60   0.34618  -1.06734
  2.65   0.37346  -0.98893
  2.70   0.40321  -0.90205
  2.75   0.43533  -0.80646
  2.80   0.46969  -0.70197
  2.85   0.50612  -0.58840
  2.90   0.54440  -0.46562
  2.95   0.58429  -0.33353
  3.00   0.62549  -0.19210
  3.05   0.66768  -0.04132
  3.10   0.71051   0.11875
  3.15   0.75358   0.28802
  3.20   0.79647   0.46633
  3.25   0.83873   0.65347
  3.30   0.87991   0.84916
  3.35   0.91951   1.05308
  3.40   0.95703   1.26483
  3.45   0.99197   1.48397
  3.50   1.02381   1.70999
  3.55   1.05204   1.94232
  3.60   1.07616   2.18033
  3.65   1.09567   2.42334
  3.70   1.11010   2.67061
  3.75   1.11900   2.92136
  3.80   1.12194   3.17474
  3.85   1.11853   3.42987
  3.90   1.10842   3.68583
  3.95   1.09130   3.94166
  4.00   1.06689   4.19636
  4.05   1.03500   4.44890
  4.10   0.99545   4.69826
  4.15   0.94814   4.94336
  4.20   0.89302   5.18314
  4.25   0.83012   5.41654
  4.30   0.75949   5.64248
  4.35   0.68128   5.85991
  4.40   0.59570   6.06779
  4.45   0.50298   6.26510
  4.50   0.40347   6.45087
  4.55   0.29753   6.62415
  4.60   0.18559   6.78403
  4.65   0.06814   6.92967
  4.70  -0.05428   7.06025
  4.75  -0.18110   7.17505
  4.80  -0.31171   7.27340
  4.85  -0.44544   7.35469
  4.90  -0.58161   7.41841
  4.95  -0.71953   7.46410
  5.00  -0.85846   7.49139
  5.05  -0.99768   7.50000
  5.10  -1.13643   7.48973
  5.15  -1.27399   7.46048
  5.20  -1.40960   7.41220
  5.25  -1.54255   7.34496
  5.30  -1.67212   7.25890
  5.35  -1.79763   7.15426
  5.40  -1.91843   7.03135
  5.45  -2.03387   6.89055
  5.50  -2.14337   6.73234
  5.55  -2.24637   6.55725
  5.60  -2.34236   6.36592
  5.65  -2.43086   6.15901
  5.70  -2.51146   5.93728
  5.75  -2.58378   5.70152
  5.80  -2.64751   5.45260
  5.85  -2.70238   5.19142
  5.90  -2.74817   4.91894
  5.95  -2.78471   4.63614
  6.00  -2.81191   4.34404
  6.05  -2.82971   4.04371
  6.10  -2.83810   3.73622
  6.15  -2.83713   3.42266
  6.20  -2.82690   3.10413
  6.25  -2.80756   2.78176
  6.30  -2.77928   2.45666
  6.35  -2.74231   2.12993
  6.40  -2.69692   1.80270
  6.45  -2.64341   1.47604
  6.50  -2.58213   1.15102
  6.55  -2.51346   0.82871
  6.60  -2.43780   0.51012
  6.65  -2.35559   0.19624
  6.70  -2.26729  -0.11197
  6.75  -2.17337  -0.41360
  6.80  -2.07432  -0.70777
  6.85  -1.97067  -0.99366
  6.90  -1.86292  -1.27048
  6.95  -1.75161  -1.53753
  7.00  -1.63728  -1.79411
  7.05  -1.52047  -2.03963
  7.10  -1.40172  -2.27352
  7.15  -1.28156  -2.49529
  7.20  -1.16054  -2.70450
  7.25  -1.03919  -2.90079
  7.30  -0.91800  -3.08384
  7.35  -0.79751  -3.25341
  7.40  -0.67818  -3.40931
  7.45  -0.56049  -3.55144
  7.50  -0.44490  -3.67972
  7.55  -0.33184  -3.79418
  7.60  -0.22172  -3.89487
  7.65  -0.11491  -3.98193
  7.70  -0.01178  -4.05555
  7.75   0.08734  -4.11597
  7.80   0.18216  -4.16348
  7.85   0.27241  -4.19846
  7.90   0.35784  -4.22130
  7.95   0.43825  -4.23244
  8.00   0.51347  -4.23241
  8.05   0.58336  -4.22172
  8.10   0.64781  -4.20097
  8.15   0.70675  -4.17076
  8.20   0.76013  -4.13174
  8.25   0.80796  -4.08458
  8.30   0.85026  -4.02998
  8.35   0.88708  -3.96865
  8.40   0.91852  -3.90131
  8.45   0.94470  -3.82871
  8.50   0.96577  -3.75157
  8.55   0.98191  -3.67064
  8.60   0.99331  -3.58664
  8.65   1.00020  -3.50032
  8.70   1.00284  -3.41236
  8.75   1.00148  -3.32347
  8.80   0.99641  -3.23431
  8.85   0.98794  -3.14552
  8.90   0.97636  -3.05771
  8.95   0.96200  -2.97146
  9.00   0.94519  -2.88731
  9.05   0.92624  -2.80576
  9.10   0.90548  -2.72727
  9.15   0.88324  -2.65225
  9.20   0.85983  -2.58108
  9.25   0.83556  -2.51408
  9.30   0.81071  -2.45153
  9.35   0.78558  -2.39366
  9.40   0.76043  -2.34064
  9.45   0.73550  -2.29261
  9.50   0.71102  -2.24966
  9.55   0.68720  -2.21183
  9.60   0.66423  -2.17910
  9.65   0.64228  -2.15142
  9.70   0.62148  -2.12869
  9.75   0.60196  -2.11078
  9.80   0.58382  -2.09750
  9.85   0.56714  -2.08864
  9.90   0.55199  -2.08395
  9.95   0.53840  -2.08314
 10.00   0.52640  -2.08589
 10.05   0.51600  -2.09185
 10.10   0.50719  -2.10067
 10.15   0.49995  -2.11196
 10.20   0.49424  -2.12529
 10.25   0.49003  -2.14026
 10.30   0.48725  -2.15643
 10.35   0.48584  -2.17335
 10.40   0.48575  -2.19060
 10.45   0.48689  -2.20771
 10.50   0.48920  -2.22425
 10.55   0.49259  -2.23978
 10.60   0.49698  -2.25388
 10.65   0.50230  -2.26614
 10.70   0.50847  -2.27616
 10.75   0.51541  -2.28357
 10.80   0.52306  -2.28801
 10.85   0.53133  -2.28915
 10.90   0.54016  -2.28670
 10.95   0.54948  -2.28037
 11.00   0.55924  -2.26993
 11.05   0.56936  -2.25516
 11.10   0.57979  -2.23590
 11.15   0.59048  -2.21200
 11.20   0.60136  -2.18335
 11.25   0.61239  -2.14988
 11.30   0.62350  -2.11156
 11.35   0.63465  -2.06839
 11.40   0.64578  -2.02040
 11.45   0.65684  -1.96767
 11.50   0.66777  -1.91030
 11.55   0.67850  -1.84841
 11.60   0.68898  -1.78218
 11.65   0.69915  -1.71181
 11.70   0.70894  -1.63751
 11.75   0.71828  -1.55953
 11.80   0.72710  -1.47815
 11.85   0.73533  -1.39364
 11.90   0.74288  -1.30634
 11.95   0.74969  -1.21655
 12.00   0.75567  -1.12462
 12.05   0.76074  -1.03090
 12.10   0.76483  -0.93574
 12.15   0.76784  -0.83952
 12.20   0.76972  -0.74260
 12.25   0.77037  -0.64535
 12.30   0.76974  -0.54813
 12.35   0.76775  -0.45130
 12.40   0.76433  -0.35521
 12.45   0.75944  -0.26022
 12.50   0.75303  -0.16663
 12.55   0.74505  -0.07478
 12.60   0.73546   0.01503
 12.65   0.72425   0.10254
 12.70   0.71140   0.18747
 12.75   0.69691   0.26958
 12.80   0.68077   0.34867
 12.85   0.66301   0.42453
 12.90   0.64365   0.49699
 12.95   0.62273   0.56591
 13.00   0.60030   0.63116
 13.05   0.57641   0.69266
 13.10   0.55113   0.75032
 13.15   0.52454   0.80410
 13.20   0.49673   0.85398
 13.25   0.46779   0.89994
 13.30   0.43783   0.94202
 13.35   0.40695   0.98024
 13.40   0.37528   1.01466
 13.45   0.34294   1.04536
 13.50   0.31006   1.07243
 13.55   0.27677   1.09596
 13.60   0.24319   1.11608
 13.65   0.20947   1.13290
 13.70   0.17574   1.14655
 13.75   0.14213   1.15719
 13.80   0.10878   1.16494
 13.85   0.07580   1.16997
 13.90   0.04333   1.17240
 13.95   0.01148   1.17240
 14.00  -0.01963   1.17011
 14.05  -0.04990   1.16567
 14.10  -0.07922   1.15922
 14.15  -0.10752   1.15090
 14.20  -0.13470   1.14083
 14.25  -0.16069   1.12913
 14.30  -0.18543   1.11592
 14.35  -0.20885   1.10130
 14.40  -0.23092   1.08537
 14.45  -0.25158   1.06823
 14.50  -0.27081   1.04996
 14.55  -0.28859   1.03062
 14.60  -0.30490   1.01029
 14.65  -0.31973   0.98904
 14.70  -0.33308   0.96691
 14.75  -0.34496   0.94395
 14.80  -0.35538   0.92022
 14.85  -0.36436   0.89575
 14.90  -0.37192   0.87057
 14.95  -0.37809   0.84474
 15.00  -0.38290   0.81828